Induced Coil Voltages at Rated Speed
Air-Gap Position (elec. degrees)
Voltage (V)
0	0.000000
1	-0.001494
2	-0.003005
3	-0.004548
4	-0.006141
5	-0.007802
6	-0.009552
7	-0.011412
8	-0.013408
9	-0.015567
10	-0.017923
11	-0.020514
12	-0.023385
13	-0.026593
14	-0.030201
15	-0.034289
16	-0.038951
17	-0.044297
18	-0.050456
19	-0.057571
20	-0.065791
21	-0.075259
22	-0.086092
23	-0.098343
24	-0.111972
25	-0.126814
26	-0.142567
27	-0.158809
28	-0.175044
29	-0.190780
30	-0.205592
31	-0.219180
32	-0.231376
33	-0.242142
34	-0.251530
35	-0.259656
36	-0.266661
37	-0.272696
38	-0.277901
39	-0.282405
40	-0.286316
41	-0.289728
42	-0.292716
43	-0.295346
44	-0.297670
45	-0.299731
46	-0.301565
47	-0.303203
48	-0.304669
49	-0.305986
50	-0.307171
51	-0.308240
52	-0.309205
53	-0.310079
54	-0.310871
55	-0.311591
56	-0.312245
57	-0.312840
58	-0.313383
59	-0.313878
60	-0.314330
61	-0.314743
62	-0.315121
63	-0.315467
64	-0.315784
65	-0.316075
66	-0.316342
67	-0.316587
68	-0.316812
69	-0.317019
70	-0.317209
71	-0.317384
72	-0.317545
73	-0.317693
74	-0.317829
75	-0.317955
76	-0.318071
77	-0.318178
78	-0.318276
79	-0.318367
80	-0.318451
81	-0.318528
82	-0.318599
83	-0.318665
84	-0.318726
85	-0.318782
86	-0.318834
87	-0.318881
88	-0.318926
89	-0.318966
90	-0.319004
91	-0.318966
92	-0.318926
93	-0.318881
94	-0.318834
95	-0.318782
96	-0.318726
97	-0.318665
98	-0.318599
99	-0.318528
100	-0.318451
101	-0.318367
102	-0.318276
103	-0.318178
104	-0.318071
105	-0.317955
106	-0.317829
107	-0.317693
108	-0.317545
109	-0.317384
110	-0.317209
111	-0.317019
112	-0.316812
113	-0.316587
114	-0.316342
115	-0.316075
116	-0.315784
117	-0.315467
118	-0.315121
119	-0.314743
120	-0.314330
121	-0.313878
122	-0.313383
123	-0.312840
124	-0.312245
125	-0.311591
126	-0.310871
127	-0.310079
128	-0.309205
129	-0.308240
130	-0.307171
131	-0.305986
132	-0.304669
133	-0.303203
134	-0.301565
135	-0.299731
136	-0.297670
137	-0.295346
138	-0.292716
139	-0.289728
140	-0.286316
141	-0.282405
142	-0.277901
143	-0.272696
144	-0.266661
145	-0.259656
146	-0.251530
147	-0.242142
148	-0.231376
149	-0.219180
150	-0.205592
151	-0.190780
152	-0.175044
153	-0.158809
154	-0.142567
155	-0.126814
156	-0.111972
157	-0.098343
158	-0.086092
159	-0.075259
160	-0.065791
161	-0.057571
162	-0.050456
163	-0.044297
164	-0.038951
165	-0.034289
166	-0.030201
167	-0.026593
168	-0.023385
169	-0.020514
170	-0.017923
171	-0.015567
172	-0.013408
173	-0.011412
174	-0.009552
175	-0.007802
176	-0.006141
177	-0.004548
178	-0.003005
179	-0.001494
180	0.000000
181	0.001494
182	0.003005
183	0.004548
184	0.006141
185	0.007802
186	0.009552
187	0.011412
188	0.013408
189	0.015567
190	0.017923
191	0.020514
192	0.023385
193	0.026593
194	0.030201
195	0.034289
196	0.038951
197	0.044297
198	0.050456
199	0.057571
200	0.065791
201	0.075259
202	0.086092
203	0.098343
204	0.111972
205	0.126814
206	0.142567
207	0.158809
208	0.175044
209	0.190780
210	0.205592
211	0.219180
212	0.231376
213	0.242142
214	0.251530
215	0.259656
216	0.266661
217	0.272696
218	0.277901
219	0.282405
220	0.286316
221	0.289728
222	0.292716
223	0.295346
224	0.297670
225	0.299731
226	0.301565
227	0.303203
228	0.304669
229	0.305986
230	0.307171
231	0.308240
232	0.309205
233	0.310079
234	0.310871
235	0.311591
236	0.312245
237	0.312840
238	0.313383
239	0.313878
240	0.314330
241	0.314743
242	0.315121
243	0.315467
244	0.315784
245	0.316075
246	0.316342
247	0.316587
248	0.316812
249	0.317019
250	0.317209
251	0.317384
252	0.317545
253	0.317693
254	0.317829
255	0.317955
256	0.318071
257	0.318178
258	0.318276
259	0.318367
260	0.318451
261	0.318528
262	0.318599
263	0.318665
264	0.318726
265	0.318782
266	0.318834
267	0.318881
268	0.318926
269	0.318966
270	0.319004
271	0.318966
272	0.318926
273	0.318881
274	0.318834
275	0.318782
276	0.318726
277	0.318665
278	0.318599
279	0.318528
280	0.318451
281	0.318367
282	0.318276
283	0.318178
284	0.318071
285	0.317955
286	0.317829
287	0.317693
288	0.317545
289	0.317384
290	0.317209
291	0.317019
292	0.316812
293	0.316587
294	0.316342
295	0.316075
296	0.315784
297	0.315467
298	0.315121
299	0.314743
300	0.314330
301	0.313878
302	0.313383
303	0.312840
304	0.312245
305	0.311591
306	0.310871
307	0.310079
308	0.309205
309	0.308240
310	0.307171
311	0.305986
312	0.304669
313	0.303203
314	0.301565
315	0.299731
316	0.297670
317	0.295346
318	0.292716
319	0.289728
320	0.286316
321	0.282405
322	0.277901
323	0.272696
324	0.266661
325	0.259656
326	0.251530
327	0.242142
328	0.231376
329	0.219180
330	0.205592
331	0.190780
332	0.175044
333	0.158809
334	0.142567
335	0.126814
336	0.111972
337	0.098343
338	0.086092
339	0.075259
340	0.065791
341	0.057571
342	0.050456
343	0.044297
344	0.038951
345	0.034289
346	0.030201
347	0.026593
348	0.023385
349	0.020514
350	0.017923
351	0.015567
352	0.013408
353	0.011412
354	0.009552
355	0.007802
356	0.006141
357	0.004548
358	0.003005
359	0.001494
360	-0.000000
One-Conductor Voltage
0	0.318726
1	0.317171
2	0.315594
3	0.313980
4	0.312310
5	0.310564
6	0.308724
7	0.306765
8	0.304663
9	0.302388
10	0.299907
11	0.297179
12	0.294159
13	0.290791
14	0.287008
15	0.282730
16	0.277861
17	0.272290
18	0.265885
19	0.258504
20	0.249994
21	0.240208
22	0.229029
23	0.216400
24	0.202358
25	0.187063
26	0.170815
27	0.154031
28	0.137201
29	0.120811
30	0.105279
31	0.090899
32	0.077829
33	0.066098
34	0.055641
35	0.046331
36	0.038008
37	0.030507
38	0.023664
39	0.017326
40	0.011354
41	0.005619
42	0.000000
43	-0.005619
44	-0.011354
45	-0.017326
46	-0.023664
47	-0.030507
48	-0.038008
49	-0.046331
50	-0.055641
51	-0.066098
52	-0.077829
53	-0.090899
54	-0.105279
55	-0.120811
56	-0.137201
57	-0.154031
58	-0.170815
59	-0.187063
60	-0.202358
61	-0.216400
62	-0.229029
63	-0.240208
64	-0.249994
65	-0.258504
66	-0.265885
67	-0.272290
68	-0.277861
69	-0.282730
70	-0.287008
71	-0.290791
72	-0.294159
73	-0.297179
74	-0.299907
75	-0.302388
76	-0.304663
77	-0.306765
78	-0.308724
79	-0.310564
80	-0.312310
81	-0.313980
82	-0.315594
83	-0.317171
84	-0.318726
85	-0.320276
86	-0.321838
87	-0.323429
88	-0.325067
89	-0.326769
90	-0.328556
91	-0.330379
92	-0.332333
93	-0.334448
94	-0.336756
95	-0.339295
96	-0.342111
97	-0.345258
98	-0.348800
99	-0.352817
100	-0.357401
101	-0.362664
102	-0.368732
103	-0.375748
104	-0.383861
105	-0.393214
106	-0.403921
107	-0.416035
108	-0.429516
109	-0.444198
110	-0.459776
111	-0.475827
112	-0.491856
113	-0.507366
114	-0.521934
115	-0.535255
116	-0.547161
117	-0.557609
118	-0.566651
119	-0.574398
120	-0.580991
121	-0.586573
122	-0.591284
123	-0.595245
124	-0.598561
125	-0.601318
126	-0.603588
127	-0.605425
128	-0.606875
129	-0.607970
130	-0.608736
131	-0.609189
132	-0.609339
133	-0.609189
134	-0.608736
135	-0.607970
136	-0.606875
137	-0.605425
138	-0.603588
139	-0.601318
140	-0.598561
141	-0.595245
142	-0.591284
143	-0.586573
144	-0.580991
145	-0.574398
146	-0.566651
147	-0.557609
148	-0.547161
149	-0.535255
150	-0.521934
151	-0.507366
152	-0.491856
153	-0.475827
154	-0.459776
155	-0.444198
156	-0.429516
157	-0.416035
158	-0.403921
159	-0.393214
160	-0.383861
161	-0.375748
162	-0.368732
163	-0.362664
164	-0.357401
165	-0.352817
166	-0.348800
167	-0.345258
168	-0.342111
169	-0.339295
170	-0.336756
171	-0.334448
172	-0.332333
173	-0.330379
174	-0.328556
175	-0.326769
176	-0.325067
177	-0.323429
178	-0.321838
179	-0.320276
180	-0.318726
181	-0.317171
182	-0.315594
183	-0.313980
184	-0.312310
185	-0.310564
186	-0.308724
187	-0.306765
188	-0.304663
189	-0.302388
190	-0.299907
191	-0.297179
192	-0.294159
193	-0.290791
194	-0.287008
195	-0.282730
196	-0.277861
197	-0.272290
198	-0.265885
199	-0.258504
200	-0.249994
201	-0.240208
202	-0.229029
203	-0.216400
204	-0.202358
205	-0.187063
206	-0.170815
207	-0.154031
208	-0.137201
209	-0.120811
210	-0.105279
211	-0.090899
212	-0.077829
213	-0.066098
214	-0.055641
215	-0.046331
216	-0.038008
217	-0.030507
218	-0.023664
219	-0.017326
220	-0.011354
221	-0.005619
222	0.000000
223	0.005619
224	0.011354
225	0.017326
226	0.023664
227	0.030507
228	0.038008
229	0.046331
230	0.055641
231	0.066098
232	0.077829
233	0.090899
234	0.105279
235	0.120811
236	0.137201
237	0.154031
238	0.170815
239	0.187063
240	0.202358
241	0.216400
242	0.229029
243	0.240208
244	0.249994
245	0.258504
246	0.265885
247	0.272290
248	0.277861
249	0.282730
250	0.287008
251	0.290791
252	0.294159
253	0.297179
254	0.299907
255	0.302388
256	0.304663
257	0.306765
258	0.308724
259	0.310564
260	0.312310
261	0.313980
262	0.315594
263	0.317171
264	0.318726
265	0.320276
266	0.321838
267	0.323429
268	0.325067
269	0.326769
270	0.328556
271	0.330379
272	0.332333
273	0.334448
274	0.336756
275	0.339295
276	0.342111
277	0.345258
278	0.348800
279	0.352817
280	0.357401
281	0.362664
282	0.368732
283	0.375748
284	0.383861
285	0.393214
286	0.403921
287	0.416035
288	0.429516
289	0.444198
290	0.459776
291	0.475827
292	0.491856
293	0.507366
294	0.521934
295	0.535255
296	0.547161
297	0.557609
298	0.566651
299	0.574398
300	0.580991
301	0.586573
302	0.591284
303	0.595245
304	0.598561
305	0.601318
306	0.603588
307	0.605425
308	0.606875
309	0.607970
310	0.608736
311	0.609189
312	0.609339
313	0.609189
314	0.608736
315	0.607970
316	0.606875
317	0.605425
318	0.603588
319	0.601318
320	0.598561
321	0.595245
322	0.591284
323	0.586573
324	0.580991
325	0.574398
326	0.566651
327	0.557609
328	0.547161
329	0.535255
330	0.521934
331	0.507366
332	0.491856
333	0.475827
334	0.459776
335	0.444198
336	0.429516
337	0.416035
338	0.403921
339	0.393214
340	0.383861
341	0.375748
342	0.368732
343	0.362664
344	0.357401
345	0.352817
346	0.348800
347	0.345258
348	0.342111
349	0.339295
350	0.336756
351	0.334448
352	0.332333
353	0.330379
354	0.328556
355	0.326769
356	0.325067
357	0.323429
358	0.321838
359	0.320276
360	0.318726
One-Turn Voltage
